ref_gps_lat (deg),ref_gps_lon (deg),ref_gps_alt (m),ref_gps_vN (m/s),ref_gps_vE (m/s),ref_gps_vD (m/s)
3.045000000000000284e+01,1.144699999999999989e+02,0.000000000000000000e+00,1.500000000000000000e+01,0.000000000000000000e+00,0.000000000000000000e+00
3.045001353051846849e+01,1.144700000334091214e+02,0.000000000000000000e+00,1.499968311425541501e+01,9.750113804945083340e-02,0.000000000000000000e+00
3.045002706005438142e+01,1.144700002184666943e+02,0.000000000000000000e+00,1.499729329127920430e+01,2.849454954052177968e-01,0.000000000000000000e+00
3.045004058612040510e+01,1.144700006161403110e+02,0.000000000000000000e+00,1.499154064284462784e+01,5.036954972378518969e-01,0.000000000000000000e+00
3.045005410549587310e+01,1.144700012476096305e+02,0.000000000000000000e+00,1.498206682506232390e+01,7.332623332525093351e-01,0.000000000000000000e+00
3.045006761479812241e+01,1.144700021201380906e+02,0.000000000000000000e+00,1.496883261475414528e+01,9.664627005076862343e-01,0.000000000000000000e+00
3.045008111064397127e+01,1.144700032360968578e+02,0.000000000000000000e+00,1.495186240951334433e+01,1.200754132610746261e+00,0.000000000000000000e+00
3.045009458967402338e+01,1.144700045961120338e+02,0.000000000000000000e+00,1.493118095909175835e+01,1.435212585945266905e+00,0.000000000000000000e+00
3.045010804854799602e+01,1.144700062001622030e+02,0.000000000000000000e+00,1.490680522905315541e+01,1.669478320635961355e+00,0.000000000000000000e+00
3.045012148393855256e+01,1.144700080479610733e+02,0.000000000000000000e+00,1.487874701679396061e+01,1.903388349823752934e+00,0.000000000000000000e+00
3.045013489252792738e+01,1.144700101390908600e+02,0.000000000000000000e+00,1.484701583677113490e+01,2.136848319995392043e+00,0.000000000000000000e+00
3.045014827100656873e+01,1.144700124730489676e+02,0.000000000000000000e+00,1.481162062225014431e+01,2.369787868678172593e+00,0.000000000000000000e+00
3.045016161607308902e+01,1.144700150492642052e+02,0.000000000000000000e+00,1.477257056126054557e+01,2.602145079079621226e+00,0.000000000000000000e+00
3.045017492443460227e+01,1.144700178671025981e+02,0.000000000000000000e+00,1.472987547170553846e+01,2.833861074232035815e+00,0.000000000000000000e+00
3.045018819280738853e+01,1.144700209258695196e+02,0.000000000000000000e+00,1.468354596018842528e+01,3.064878143586495796e+00,0.000000000000000000e+00
3.045020141791766477e+01,1.144700242248105013e+02,0.000000000000000000e+00,1.463359348595146692e+01,3.295139099934746518e+00,0.000000000000000000e+00
3.045021459650230611e+01,1.144700277631117444e+02,0.000000000000000000e+00,1.458003038485211000e+01,3.524587064719672203e+00,0.000000000000000000e+00
3.045022772530970911e+01,1.144700315399002761e+02,0.000000000000000000e+00,1.452286987691704567e+01,3.753165402448376486e+00,0.000000000000000000e+00
3.045024080110051301e+01,1.144700355542443333e+02,0.000000000000000000e+00,1.446212606721119798e+01,3.980817706965539493e+00,0.000000000000000000e+00
3.045025382064848429e+01,1.144700398051534478e+02,0.000000000000000000e+00,1.439781394394937131e+01,4.207487805735990349e+00,0.000000000000000000e+00
3.045026678074122373e+01,1.144700442915789012e+02,0.000000000000000000e+00,1.432994937540587621e+01,4.433119770354142730e+00,0.000000000000000000e+00
3.045027967818104031e+01,1.144700490124137531e+02,0.000000000000000000e+00,1.425854910622950200e+01,4.657657929178771639e+00,0.000000000000000000e+00
3.045029250978566893e+01,1.144700539664932819e+02,0.000000000000000000e+00,1.418363075339867407e+01,4.881046880664371201e+00,0.000000000000000000e+00
3.045030527238911944e+01,1.144700591525951836e+02,0.000000000000000000e+00,1.410521280190714677e+01,5.103231506889994940e+00,0.000000000000000000e+00
3.045031796284240144e+01,1.144700645694399412e+02,0.000000000000000000e+00,1.402331460021519227e+01,5.324156987109927464e+00,0.000000000000000000e+00
3.045033057801432719e+01,1.144700702156910666e+02,0.000000000000000000e+00,1.393795635548011802e+01,5.543768811262908436e+00,0.000000000000000000e+00
3.045034311479231448e+01,1.144700760899554979e+02,0.000000000000000000e+00,1.384915912857213272e+01,5.762012793415785872e+00,0.000000000000000000e+00
3.045035557008308658e+01,1.144700821907838844e+02,0.000000000000000000e+00,1.375694482887847059e+01,5.978835085131042781e+00,0.000000000000000000e+00
3.045036794081348575e+01,1.144700885166710265e+02,0.000000000000000000e+00,1.366133620889782385e+01,6.194182188752378693e+00,0.000000000000000000e+00
3.045038022393122290e+01,1.144700950660561318e+02,0.000000000000000000e+00,1.356235685862658080e+01,6.408000970604215141e+00,0.000000000000000000e+00
3.045039241640562366e+01,1.144701018373232984e+02,0.000000000000000000e+00,1.346003119973836526e+01,6.620238674101543985e+00,0.000000000000000000e+00
3.045040451522837799e+01,1.144701088288018553e+02,0.000000000000000000e+00,1.335438447955838548e+01,6.830842932766799436e+00,0.000000000000000000e+00
3.045041651741428979e+01,1.144701160387668040e+02,0.000000000000000000e+00,1.324544276483401539e+01,7.039761783150495944e+00,0.000000000000000000e+00
3.045042842000198746e+01,1.144701234654392437e+02,0.000000000000000000e+00,1.313323293530323710e+01,7.246943677652415872e+00,0.000000000000000000e+00
3.045044022005468776e+01,1.144701311069868126e+02,0.000000000000000000e+00,1.301778267706245451e+01,7.452337497240222319e+00,0.000000000000000000e+00
3.045045191466091694e+01,1.144701389615241141e+02,0.000000000000000000e+00,1.289912047573537102e+01,7.655892564062305006e+00,0.000000000000000000e+00
3.045046350093520005e+01,1.144701470271131711e+02,0.000000000000000000e+00,1.277727560944458318e+01,7.857558653951782546e+00,0.000000000000000000e+00
3.045047497601878561e+01,1.144701553017639952e+02,0.000000000000000000e+00,1.265227814158764197e+01,8.057286008818573819e+00,0.000000000000000000e+00
3.045048633708039176e+01,1.144701637834349697e+02,0.000000000000000000e+00,1.252415891341936849e+01,8.255025348926446682e+00,0.000000000000000000e+00
3.045049758131682438e+01,1.144701724700334040e+02,0.000000000000000000e+00,1.239294953644222019e+01,8.450727885052067734e+00,0.000000000000000000e+00
3.045050870595375514e+01,1.144701813594160313e+02,0.000000000000000000e+00,1.225868238460663839e+01,8.644345330523007576e+00,0.000000000000000000e+00
3.045051970824633614e+01,1.144701904493895910e+02,0.000000000000000000e+00,1.212139058632325650e+01,8.835829913131757252e+00,0.000000000000000000e+00
3.045053058547992109e+01,1.144701997377112832e+02,0.000000000000000000e+00,1.198110801628896027e+01,9.025134386922800900e+00,0.000000000000000000e+00
3.045054133497071192e+01,1.144702092220894087e+02,0.000000000000000000e+00,1.183786928712881092e+01,9.212212043849858034e+00,0.000000000000000000e+00
3.045055195406644444e+01,1.144702189001838377e+02,0.000000000000000000e+00,1.169170974085590586e+01,9.397016725300382234e+00,0.000000000000000000e+00
3.045056244014699942e+01,1.144702287696066918e+02,0.000000000000000000e+00,1.154266544015125184e+01,9.579502833484518476e+00,0.000000000000000000e+00
3.045057279062510602e+01,1.144702388279228700e+02,0.000000000000000000e+00,1.139077315946584967e+01,9.759625342685669835e+00,0.000000000000000000e+00
3.045058300294694220e+01,1.144702490726506454e+02,0.000000000000000000e+00,1.123607037594714875e+01,9.937339810369921977e+00,0.000000000000000000e+00
3.045059307459275999e+01,1.144702595012623192e+02,0.000000000000000000e+00,1.107859526019211138e+01,1.011260238815157209e+01,0.000000000000000000e+00
3.045060300307753565e+01,1.144702701111848029e+02,0.000000000000000000e+00,1.091838666682920156e+01,1.028536983261206395e+01,0.000000000000000000e+00
3.045061278595156651e+01,1.144702808998002865e+02,0.000000000000000000e+00,1.075548412493157713e+01,1.045559951596965220e+01,0.000000000000000000e+00
3.045062242080107850e+01,1.144702918644468497e+02,0.000000000000000000e+00,1.058992782826389067e+01,1.062324943659716858e+01,0.000000000000000000e+00
3.045063190524881591e+01,1.144703030024191435e+02,0.000000000000000000e+00,1.042175862536507047e+01,1.078827822938529657e+01,0.000000000000000000e+00
3.045064123695463110e+01,1.144703143109690728e+02,0.000000000000000000e+00,1.025101800946956487e+01,1.095064517594879661e+01,0.000000000000000000e+00
3.045065041361606362e+01,1.144703257873064501e+02,0.000000000000000000e+00,1.007774810826949619e+01,1.111031021467315227e+01,0.000000000000000000e+00
3.045065943296891575e+01,1.144703374285996347e+02,0.000000000000000000e+00,9.901991673520292636e+00,1.126723395059917898e+01,0.000000000000000000e+00
3.045066829278778897e+01,1.144703492319763285e+02,0.000000000000000000e+00,9.723792070492331518e+00,1.142137766514313491e+01,0.000000000000000000e+00
3.045067699088667368e+01,1.144703611945242585e+02,0.000000000000000000e+00,9.543193267271201208e+00,1.157270332564995918e+01,0.000000000000000000e+00
3.045068552511942528e+01,1.144703733132918444e+02,0.000000000000000000e+00,9.360239823909235923e+00,1.172117359477725529e+01,0.000000000000000000e+00
3.045069389338036103e+01,1.144703855852889518e+02,0.000000000000000000e+00,9.174976881430998432e+00,1.186675183970772807e+01,0.000000000000000000e+00
3.045070209360473967e+01,1.144703980074876881e+02,0.000000000000000000e+00,8.987450150695391216e+00,1.200940214118776872e+01,0.000000000000000000e+00
3.045071012376927300e+01,1.144704105768230420e+02,0.000000000000000000e+00,8.797705901117204519e+00,1.214908930239001528e+01,0.000000000000000000e+00
3.045071798189264811e+01,1.144704232901937075e+02,0.000000000000000000e+00,8.605790949250817334e+00,1.228577885759762189e+01,0.000000000000000000e+00
3.045072566603597153e+01,1.144704361444628802e+02,0.000000000000000000e+00,8.411752647238914804e+00,1.241943708070817287e+01,0.000000000000000000e+00
3.045073317430331983e+01,1.144704491364589387e+02,0.000000000000000000e+00,8.215638871129062437e+00,1.255003099355508311e+01,0.000000000000000000e+00
3.045074050484213046e+01,1.144704622629763122e+02,0.000000000000000000e+00,8.017498009061009512e+00,1.267752837404447419e+01,0.000000000000000000e+00
3.045074765584369914e+01,1.144704755207762190e+02,0.000000000000000000e+00,7.817378949327627780e+00,1.280189776410549563e+01,0.000000000000000000e+00
3.045075462554363099e+01,1.144704889065874909e+02,0.000000000000000000e+00,7.615331068312450213e+00,1.292310847745213209e+01,0.000000000000000000e+00
3.045076141222225274e+01,1.144705024171073688e+02,0.000000000000000000e+00,7.411404218306810954e+00,1.304113060715458161e+01,0.000000000000000000e+00
3.045076801420506030e+01,1.144705160490023417e+02,0.000000000000000000e+00,7.205648715209528099e+00,1.315593503301834133e+01,0.000000000000000000e+00
3.045077442986310601e+01,1.144705297989089132e+02,0.000000000000000000e+00,6.998115326112202439e+00,1.326749342876918547e+01,0.000000000000000000e+00
3.045078065761342145e+01,1.144705436634344977e+02,0.000000000000000000e+00,6.788855256773207003e+00,1.337577826904224665e+01,0.000000000000000000e+00
3.045078669591940823e+01,1.144705576391582298e+02,0.000000000000000000e+00,6.577920138983425424e+00,1.348076283617348814e+01,0.000000000000000000e+00
3.045079254329121099e+01,1.144705717226317603e+02,0.000000000000000000e+00,6.365362017826880603e+00,1.358242122679189023e+01,0.000000000000000000e+00
3.045079819828606560e+01,1.144705859103802368e+02,0.000000000000000000e+00,6.151233338839394271e+00,1.368072835821071109e+01,0.000000000000000000e+00
3.045080365950869705e+01,1.144706001989030000e+02,0.000000000000000000e+00,5.935586935068428716e+00,1.377565997461627845e+01,0.000000000000000000e+00
3.045080892561162855e+01,1.144706145846745500e+02,0.000000000000000000e+00,5.718476014037329413e+00,1.386719265305273474e+01,0.000000000000000000e+00
3.045081399529552257e+01,1.144706290641453990e+02,0.000000000000000000e+00,5.499954144617160701e+00,1.395530380920130575e+01,0.000000000000000000e+00
3.045081886730951837e+01,1.144706436337429381e+02,0.000000000000000000e+00,5.280075243809387864e+00,1.403997170295265384e+01,0.000000000000000000e+00
3.045082354045151618e+01,1.144706582898723184e+02,0.000000000000000000e+00,5.058893563442667052e+00,1.412117544377090361e+01,0.000000000000000000e+00
3.045082801356849345e+01,1.144706730289173322e+02,0.000000000000000000e+00,4.836463676787015942e+00,1.419889499584808590e+01,0.000000000000000000e+00
3.045083228555676769e+01,1.144706878472413223e+02,0.000000000000000000e+00,4.612840465088677178e+00,1.427311118304766957e+01,0.000000000000000000e+00
3.045083635536229849e+01,1.144707027411880489e+02,0.000000000000000000e+00,4.388079104028991928e+00,1.434380569363598568e+01,0.000000000000000000e+00
3.045084022198091489e+01,1.144707177070826560e+02,0.000000000000000000e+00,4.162235050110624890e+00,1.441096108480036975e+01,0.000000000000000000e+00
3.045084388445858892e+01,1.144707327412325100e+02,0.000000000000000000e+00,3.935364026974502050e+00,1.447456078695291559e+01,0.000000000000000000e+00
3.045084734189167008e+01,1.144707478399280944e+02,0.000000000000000000e+00,3.707522011650840277e+00,1.453458910781878721e+01,0.000000000000000000e+00
3.045085059342707012e+01,1.144707629994440339e+02,0.000000000000000000e+00,3.478765220747646048e+00,1.459103123630802834e+01,0.000000000000000000e+00
3.045085363826253300e+01,1.144707782160399034e+02,0.000000000000000000e+00,3.249150096580113889e+00,1.464387324616999742e+01,0.000000000000000000e+00
3.045085647564679476e+01,1.144707934859612237e+02,0.000000000000000000e+00,3.018733293244327598e+00,1.469310209942945455e+01,0.000000000000000000e+00
3.045085910487976477e+01,1.144708088054403277e+02,0.000000000000000000e+00,2.787571662638709036e+00,1.473870564960348339e+01,0.000000000000000000e+00
3.045086152531272106e+01,1.144708241706973411e+02,0.000000000000000000e+00,2.555722240436664183e+00,1.478067264469846087e+01,0.000000000000000000e+00
3.045086373634847021e+01,1.144708395779410921e+02,0.000000000000000000e+00,2.323242232013885022e+00,1.481899272998631112e+01,0.000000000000000000e+00
3.045086573744145397e+01,1.144708550233700066e+02,0.000000000000000000e+00,2.090188998333776027e+00,1.485365645055938622e+01,0.000000000000000000e+00
3.045086752809794461e+01,1.144708705031731597e+02,0.000000000000000000e+00,1.856620041794497356e+00,1.488465525366331832e+01,0.000000000000000000e+00
3.045086910787611600e+01,1.144708860135310999e+02,0.000000000000000000e+00,1.622592992041107962e+00,1.491198149080728541e+01,0.000000000000000000e+00
3.045087047638619637e+01,1.144709015506168583e+02,0.000000000000000000e+00,1.388165591746312932e+00,1.493562841965116661e+01,0.000000000000000000e+00
3.045087163329051450e+01,1.144709171105968295e+02,0.000000000000000000e+00,1.153395682363322017e+00,1.495559020566910391e+01,0.000000000000000000e+00
3.045087257830362049e+01,1.144709326896318231e+02,0.000000000000000000e+00,9.183411898543379914e-01,1.497186192358909373e+01,0.000000000000000000e+00
3.045087331119235330e+01,1.144709482838778882e+02,0.000000000000000000e+00,6.830601103981916999e-01,1.498443955860821752e+01,0.000000000000000000e+00
3.045087383177587981e+01,1.144709638894873365e+02,0.000000000000000000e+00,4.476104960806524535e-01,1.499332000738323600e+01,0.000000000000000000e+00
3.045087413992575165e+01,1.144709795026097225e+02,0.000000000000000000e+00,2.120504405709449924e-01,1.499850107879629491e+01,0.000000000000000000e+00
3.045087423556594786e+01,1.144709951193926543e+02,0.000000000000000000e+00,-2.356193521199450441e-02,1.499998149449555385e+01,0.000000000000000000e+00
3.045087411867286065e+01,1.144710107359829436e+02,0.000000000000000000e+00,-2.591684974399852126e-01,1.499776088921058559e+01,0.000000000000000000e+00
3.045087378927533095e+01,1.144710263485273458e+02,0.000000000000000000e+00,-4.947111137192541919e-01,1.499183981084251904e+01,0.000000000000000000e+00
3.045087324745464130e+01,1.144710419531737102e+02,0.000000000000000000e+00,-7.301316674337341439e-01,1.498221972032884075e+01,0.000000000000000000e+00
3.045087249334446966e+01,1.144710575460717763e+02,0.000000000000000000e+00,-9.653720720844696235e-01,1.496890299128293833e+01,0.000000000000000000e+00
3.045087152713088230e+01,1.144710731233741683e+02,0.000000000000000000e+00,-1.200374285621590431e+00,1.495189290940844273e+01,0.000000000000000000e+00
3.045087034905228407e+01,1.144710886812374326e+02,0.000000000000000000e+00,-1.435080324765320325e+00,1.493119367168852563e+01,0.000000000000000000e+00
3.045086895939934379e+01,1.144711042158228338e+02,0.000000000000000000e+00,-1.669432279312482281e+00,1.490681038535036507e+01,0.000000000000000000e+00
3.045086735851493742e+01,1.144711197232974058e+02,0.000000000000000000e+00,-1.903372326424975558e+00,1.487874906660501395e+01,0.000000000000000000e+00
3.045086554679405921e+01,1.144711351998349329e+02,0.000000000000000000e+00,-2.136842744896694679e+00,1.484701663916297854e+01,0.000000000000000000e+00
3.045086352468372581e+01,1.144711506416167026e+02,0.000000000000000000e+00,-2.369785929395374691e+00,1.481162093252590850e+01,0.000000000000000000e+00
3.045086129268285546e+01,1.144711660448327137e+02,0.000000000000000000e+00,-2.602144404675845291e+00,1.477257068005478224e+01,0.000000000000000000e+00
3.045085885134216497e+01,1.144711814056824011e+02,0.000000000000000000e+00,-2.833860839761184192e+00,1.472987551681507057e+01,0.000000000000000000e+00
3.045085620126402759e+01,1.144711967203756586e+02,0.000000000000000000e+00,-3.064878062088281840e+00,1.468354597719944366e+01,0.000000000000000000e+00
3.045085334310230252e+01,1.144712119851338201e+02,0.000000000000000000e+00,-3.295139071614314741e+00,1.463359349232855955e+01,0.000000000000000000e+00
3.045085027756218921e+01,1.144712271961904690e+02,0.000000000000000000e+00,-3.524587054880650605e+00,1.458003038723060207e+01,0.000000000000000000e+00
3.045084700540007816e+01,1.144712423497925045e+02,0.000000000000000000e+00,-3.753165399030723659e+00,1.452286987780027339e+01,0.000000000000000000e+00
3.045084352742332001e+01,1.144712574422009652e+02,0.000000000000000000e+00,-3.980817705778405102e+00,1.446212606753796592e+01,0.000000000000000000e+00
3.045083984449005143e+01,1.144712724696919963e+02,0.000000000000000000e+00,-4.207487805323439467e+00,1.439781394406993087e+01,0.000000000000000000e+00
3.045083595750897842e+01,1.144712874285577584e+02,0.000000000000000000e+00,-4.433119770210502075e+00,1.432994937545031178e+01,0.000000000000000000e+00
3.045083186743916670e+01,1.144713023151073514e+02,0.000000000000000000e+00,-4.657657929128460772e+00,1.425854910624593685e+01,0.000000000000000000e+00
3.045082757528976458e+01,1.144713171256677242e+02,0.000000000000000000e+00,-4.881046880646438879e+00,1.418363075340484514e+01,0.000000000000000000e+00
3.045082308211980759e+01,1.144713318565845555e+02,0.000000000000000000e+00,-5.103231506883289192e+00,1.410521280190957327e+01,0.000000000000000000e+00
3.045081838903790938e+01,1.144713465042232059e+02,0.000000000000000000e+00,-5.324156987107108385e+00,1.402331460021625986e+01,0.000000000000000000e+00
3.045081349720202724e+01,1.144713610649695568e+02,0.000000000000000000e+00,-5.543768811261430507e+00,1.393795635548070599e+01,0.000000000000000000e+00
3.045080840781913523e+01,1.144713755352309477e+02,0.000000000000000000e+00,-5.762012793414767131e+00,1.384915912857255549e+01,0.000000000000000000e+00
3.045080312214496843e+01,1.144713899114370435e+02,0.000000000000000000e+00,-5.978835085130177696e+00,1.375694482887884540e+01,0.000000000000000000e+00
3.045079764148368540e+01,1.144714041900406869e+02,0.000000000000000000e+00,-6.194182188751561569e+00,1.366133620889819511e+01,0.000000000000000000e+00
3.045079196718756265e+01,1.144714183675188508e+02,0.000000000000000000e+00,-6.408000970603409563e+00,1.356235685862696094e+01,0.000000000000000000e+00
3.045078610065664293e+01,1.144714324403734338e+02,0.000000000000000000e+00,-6.620238674100737519e+00,1.346003119973876139e+01,0.000000000000000000e+00
3.045078004333840482e+01,1.144714464051321556e+02,0.000000000000000000e+00,-6.830842932765989417e+00,1.335438447955879937e+01,0.000000000000000000e+00
