ref_pos_lat (deg),ref_pos_lon (deg),ref_pos_alt (m)
3.045000000000000284e+01,1.144699999999999989e+02,0.000000000000000000e+00
3.045000135305716782e+01,1.144699999999999989e+02,0.000000000000000000e+00
3.045000270611431858e+01,1.144700000002453208e+02,0.000000000000000000e+00
3.045000405917134145e+01,1.144700000009567304e+02,0.000000000000000000e+00
3.045000541222798773e+01,1.144700000023329380e+02,0.000000000000000000e+00
3.045000676528378136e+01,1.144700000045527872e+02,0.000000000000000000e+00
3.045000811833806509e+01,1.144700000077772302e+02,0.000000000000000000e+00
3.045000947138992586e+01,1.144700000121511039e+02,0.000000000000000000e+00
3.045001082443822327e+01,1.144700000178047787e+02,0.000000000000000000e+00
3.045001217748159661e+01,1.144700000248555938e+02,0.000000000000000000e+00
3.045001353051846849e+01,1.144700000334091214e+02,0.000000000000000000e+00
3.045001488354704833e+01,1.144700000435604181e+02,0.000000000000000000e+00
3.045001623656536438e+01,1.144700000553950048e+02,0.000000000000000000e+00
3.045001758957126015e+01,1.144700000689898047e+02,0.000000000000000000e+00
3.045001894256242636e+01,1.144700000844141385e+02,0.000000000000000000e+00
3.045002029553641520e+01,1.144700001017303066e+02,0.000000000000000000e+00
3.045002164849063675e+01,1.144700001209944134e+02,0.000000000000000000e+00
3.045002300142239093e+01,1.144700001422569073e+02,0.000000000000000000e+00
3.045002435432887467e+01,1.144700001655632207e+02,0.000000000000000000e+00
3.045002570720719604e+01,1.144700001909542380e+02,0.000000000000000000e+00
3.045002706005438142e+01,1.144700002184666943e+02,0.000000000000000000e+00
3.045002841286738615e+01,1.144700002481336867e+02,0.000000000000000000e+00
3.045002976564311226e+01,1.144700002799849869e+02,0.000000000000000000e+00
3.045003111837839782e+01,1.144700003140473683e+02,0.000000000000000000e+00
3.045003247107005251e+01,1.144700003503448897e+02,0.000000000000000000e+00
3.045003382371483980e+01,1.144700003888992370e+02,0.000000000000000000e+00
3.045003517630948764e+01,1.144700004297298790e+02,0.000000000000000000e+00
3.045003652885069201e+01,1.144700004728543377e+02,0.000000000000000000e+00
3.045003788133513822e+01,1.144700005182883586e+02,0.000000000000000000e+00
3.045003923375949384e+01,1.144700005660461102e+02,0.000000000000000000e+00
3.045004058612040510e+01,1.144700006161403110e+02,0.000000000000000000e+00
3.045004193841449691e+01,1.144700006685824007e+02,0.000000000000000000e+00
3.045004329063840132e+01,1.144700007233826398e+02,0.000000000000000000e+00
3.045004464278872547e+01,1.144700007805502651e+02,0.000000000000000000e+00
3.045004599486209429e+01,1.144700008400935900e+02,0.000000000000000000e+00
3.045004734685510073e+01,1.144700009020200042e+02,0.000000000000000000e+00
3.045004869876435194e+01,1.144700009663362152e+02,0.000000000000000000e+00
3.045005005058645864e+01,1.144700010330481916e+02,0.000000000000000000e+00
3.045005140231801022e+01,1.144700011021612909e+02,0.000000000000000000e+00
3.045005275395561739e+01,1.144700011736803447e+02,0.000000000000000000e+00
3.045005410549587310e+01,1.144700012476096305e+02,0.000000000000000000e+00
3.045005545693538807e+01,1.144700013239529852e+02,0.000000000000000000e+00
3.045005680827076588e+01,1.144700014027138906e+02,0.000000000000000000e+00
3.045005815949861017e+01,1.144700014838953734e+02,0.000000000000000000e+00
3.045005951061553517e+01,1.144700015675001907e+02,0.000000000000000000e+00
3.045006086161814451e+01,1.144700016535307867e+02,0.000000000000000000e+00
3.045006221250305956e+01,1.144700017419893214e+02,0.000000000000000000e+00
3.045006356326689101e+01,1.144700018328776991e+02,0.000000000000000000e+00
3.045006491390627090e+01,1.144700019261976536e+02,0.000000000000000000e+00
3.045006626441779929e+01,1.144700020219506769e+02,0.000000000000000000e+00
3.045006761479812241e+01,1.144700021201380906e+02,0.000000000000000000e+00
3.045006896504386162e+01,1.144700022207610601e+02,0.000000000000000000e+00
3.045007031515163831e+01,1.144700023238205944e+02,0.000000000000000000e+00
3.045007166511809871e+01,1.144700024293175744e+02,0.000000000000000000e+00
3.045007301493987129e+01,1.144700025372527818e+02,0.000000000000000000e+00
3.045007436461359163e+01,1.144700026476268562e+02,0.000000000000000000e+00
3.045007571413590952e+01,1.144700027604403516e+02,0.000000000000000000e+00
3.045007706350345700e+01,1.144700028756937655e+02,0.000000000000000000e+00
3.045007841271288385e+01,1.144700029933874390e+02,0.000000000000000000e+00
3.045007976176083631e+01,1.144700031135217273e+02,0.000000000000000000e+00
3.045008111064397127e+01,1.144700032360968578e+02,0.000000000000000000e+00
3.045008245935892788e+01,1.144700033611130152e+02,0.000000000000000000e+00
3.045008380790236302e+01,1.144700034885703417e+02,0.000000000000000000e+00
3.045008515627093004e+01,1.144700036184689083e+02,0.000000000000000000e+00
3.045008650446128939e+01,1.144700037508087576e+02,0.000000000000000000e+00
3.045008785247009797e+01,1.144700038855899038e+02,0.000000000000000000e+00
3.045008920029401622e+01,1.144700040228122617e+02,0.000000000000000000e+00
3.045009054792970105e+01,1.144700041624757887e+02,0.000000000000000000e+00
3.045009189537382355e+01,1.144700043045803568e+02,0.000000000000000000e+00
3.045009324262304062e+01,1.144700044491258240e+02,0.000000000000000000e+00
3.045009458967402338e+01,1.144700045961120338e+02,0.000000000000000000e+00
3.045009593652343227e+01,1.144700047455387875e+02,0.000000000000000000e+00
3.045009728316793485e+01,1.144700048974058717e+02,0.000000000000000000e+00
3.045009862960420222e+01,1.144700050517130592e+02,0.000000000000000000e+00
3.045009997582891259e+01,1.144700052084600657e+02,0.000000000000000000e+00
3.045010132183872642e+01,1.144700053676466496e+02,0.000000000000000000e+00
3.045010266763031836e+01,1.144700055292724841e+02,0.000000000000000000e+00
3.045010401320037019e+01,1.144700056933373133e+02,0.000000000000000000e+00
3.045010535854554945e+01,1.144700058598407537e+02,0.000000000000000000e+00
3.045010670366252725e+01,1.144700060287825067e+02,0.000000000000000000e+00
3.045010804854799602e+01,1.144700062001622030e+02,0.000000000000000000e+00
3.045010939319861620e+01,1.144700063739795013e+02,0.000000000000000000e+00
3.045011073761107312e+01,1.144700065502340038e+02,0.000000000000000000e+00
3.045011208178204853e+01,1.144700067289253269e+02,0.000000000000000000e+00
3.045011342570821355e+01,1.144700069100530868e+02,0.000000000000000000e+00
3.045011476938626060e+01,1.144700070936168430e+02,0.000000000000000000e+00
3.045011611281287145e+01,1.144700072796162260e+02,0.000000000000000000e+00
3.045011745598472075e+01,1.144700074680507811e+02,0.000000000000000000e+00
3.045011879889849027e+01,1.144700076589200677e+02,0.000000000000000000e+00
3.045012014155087599e+01,1.144700078522236453e+02,0.000000000000000000e+00
3.045012148393855256e+01,1.144700080479610733e+02,0.000000000000000000e+00
3.045012282605821596e+01,1.144700082461318686e+02,0.000000000000000000e+00
3.045012416790654797e+01,1.144700084467355623e+02,0.000000000000000000e+00
3.045012550948023033e+01,1.144700086497716995e+02,0.000000000000000000e+00
3.045012685077595904e+01,1.144700088552397688e+02,0.000000000000000000e+00
3.045012819179042296e+01,1.144700090631392868e+02,0.000000000000000000e+00
3.045012953252031096e+01,1.144700092734697563e+02,0.000000000000000000e+00
3.045013087296231546e+01,1.144700094862306656e+02,0.000000000000000000e+00
3.045013221311311824e+01,1.144700097014215032e+02,0.000000000000000000e+00
3.045013355296942237e+01,1.144700099190417433e+02,0.000000000000000000e+00
3.045013489252792738e+01,1.144700101390908600e+02,0.000000000000000000e+00
3.045013623178530793e+01,1.144700103615683133e+02,0.000000000000000000e+00
3.045013757073827421e+01,1.144700105864735633e+02,0.000000000000000000e+00
3.045013890938351864e+01,1.144700108138060699e+02,0.000000000000000000e+00
3.045014024771773364e+01,1.144700110435652505e+02,0.000000000000000000e+00
3.045014158573762231e+01,1.144700112757505650e+02,0.000000000000000000e+00
3.045014292343987705e+01,1.144700115103614451e+02,0.000000000000000000e+00
3.045014426082119385e+01,1.144700117473973080e+02,0.000000000000000000e+00
3.045014559787828645e+01,1.144700119868575854e+02,0.000000000000000000e+00
3.045014693460784372e+01,1.144700122287416661e+02,0.000000000000000000e+00
3.045014827100656873e+01,1.144700124730489676e+02,0.000000000000000000e+00
3.045014960707116813e+01,1.144700127197789072e+02,0.000000000000000000e+00
3.045015094279834145e+01,1.144700129689308454e+02,0.000000000000000000e+00
3.045015227818479531e+01,1.144700132205041996e+02,0.000000000000000000e+00
3.045015361322722924e+01,1.144700134744983302e+02,0.000000000000000000e+00
3.045015494792235700e+01,1.144700137309126262e+02,0.000000000000000000e+00
3.045015628226688165e+01,1.144700139897464624e+02,0.000000000000000000e+00
3.045015761625750628e+01,1.144700142509991707e+02,0.000000000000000000e+00
3.045015894989094107e+01,1.144700145146701402e+02,0.000000000000000000e+00
3.045016028316389622e+01,1.144700147807587030e+02,0.000000000000000000e+00
3.045016161607308902e+01,1.144700150492642052e+02,0.000000000000000000e+00
3.045016294861522255e+01,1.144700153201859933e+02,0.000000000000000000e+00
3.045016428078700699e+01,1.144700155935233994e+02,0.000000000000000000e+00
3.045016561258515964e+01,1.144700158692757270e+02,0.000000000000000000e+00
3.045016694400639068e+01,1.144700161474423368e+02,0.000000000000000000e+00
3.045016827504742807e+01,1.144700164280225181e+02,0.000000000000000000e+00
3.045016960570496778e+01,1.144700167110155746e+02,0.000000000000000000e+00
3.045017093597573776e+01,1.144700169964208101e+02,0.000000000000000000e+00
3.045017226585645531e+01,1.144700172842375423e+02,0.000000000000000000e+00
3.045017359534383061e+01,1.144700175744650466e+02,0.000000000000000000e+00
3.045017492443460227e+01,1.144700178671025981e+02,0.000000000000000000e+00
3.045017625312546627e+01,1.144700181621494863e+02,0.000000000000000000e+00
3.045017758141316477e+01,1.144700184596049866e+02,0.000000000000000000e+00
3.045017890929440796e+01,1.144700187594683598e+02,0.000000000000000000e+00
3.045018023676592378e+01,1.144700190617388529e+02,0.000000000000000000e+00
3.045018156382444019e+01,1.144700193664157553e+02,0.000000000000000000e+00
3.045018289046667803e+01,1.144700196734982853e+02,0.000000000000000000e+00
3.045018421668936170e+01,1.144700199829856757e+02,0.000000000000000000e+00
3.045018554248922271e+01,1.144700202948772016e+02,0.000000000000000000e+00
3.045018686786298900e+01,1.144700206091720815e+02,0.000000000000000000e+00
3.045018819280738853e+01,1.144700209258695196e+02,0.000000000000000000e+00
3.045018951731915635e+01,1.144700212449687484e+02,0.000000000000000000e+00
3.045019084139502397e+01,1.144700215664689722e+02,0.000000000000000000e+00
3.045019216503172288e+01,1.144700218903694235e+02,0.000000000000000000e+00
3.045019348822598459e+01,1.144700222166692782e+02,0.000000000000000000e+00
3.045019481097454772e+01,1.144700225453677263e+02,0.000000000000000000e+00
3.045019613327414731e+01,1.144700228764639860e+02,0.000000000000000000e+00
3.045019745512151488e+01,1.144700232099572048e+02,0.000000000000000000e+00
3.045019877651339968e+01,1.144700235458466011e+02,0.000000000000000000e+00
3.045020009744653677e+01,1.144700238841313080e+02,0.000000000000000000e+00
3.045020141791766477e+01,1.144700242248105013e+02,0.000000000000000000e+00
3.045020273792352583e+01,1.144700245678833710e+02,0.000000000000000000e+00
3.045020405746086922e+01,1.144700249133490217e+02,0.000000000000000000e+00
3.045020537652642645e+01,1.144700252612066294e+02,0.000000000000000000e+00
3.045020669511695033e+01,1.144700256114553270e+02,0.000000000000000000e+00
3.045020801322919723e+01,1.144700259640942619e+02,0.000000000000000000e+00
3.045020933085989867e+01,1.144700263191225673e+02,0.000000000000000000e+00
3.045021064800580746e+01,1.144700266765393479e+02,0.000000000000000000e+00
3.045021196466367996e+01,1.144700270363437227e+02,0.000000000000000000e+00
3.045021328083026546e+01,1.144700273985348247e+02,0.000000000000000000e+00
3.045021459650230611e+01,1.144700277631117444e+02,0.000000000000000000e+00
3.045021591167657249e+01,1.144700281300735867e+02,0.000000000000000000e+00
3.045021722634981032e+01,1.144700284994194419e+02,0.000000000000000000e+00
3.045021854051877241e+01,1.144700288711483864e+02,0.000000000000000000e+00
3.045021985418022581e+01,1.144700292452595534e+02,0.000000000000000000e+00
3.045022116733091977e+01,1.144700296217519622e+02,0.000000000000000000e+00
3.045022247996761777e+01,1.144700300006247033e+02,0.000000000000000000e+00
3.045022379208708685e+01,1.144700303818768532e+02,0.000000000000000000e+00
3.045022510368607627e+01,1.144700307655074596e+02,0.000000000000000000e+00
3.045022641476136371e+01,1.144700311515155988e+02,0.000000000000000000e+00
3.045022772530970911e+01,1.144700315399002761e+02,0.000000000000000000e+00
3.045022903532787595e+01,1.144700319306605678e+02,0.000000000000000000e+00
3.045023034481263124e+01,1.144700323237954933e+02,0.000000000000000000e+00
3.045023165376074203e+01,1.144700327193041005e+02,0.000000000000000000e+00
3.045023296216899311e+01,1.144700331171853804e+02,0.000000000000000000e+00
3.045023427003414085e+01,1.144700335174383952e+02,0.000000000000000000e+00
3.045023557735296293e+01,1.144700339200621073e+02,0.000000000000000000e+00
3.045023688412223706e+01,1.144700343250555790e+02,0.000000000000000000e+00
3.045023819033873735e+01,1.144700347324177727e+02,0.000000000000000000e+00
3.045023949599923796e+01,1.144700351421476796e+02,0.000000000000000000e+00
3.045024080110051301e+01,1.144700355542443333e+02,0.000000000000000000e+00
3.045024210563935441e+01,1.144700359687066538e+02,0.000000000000000000e+00
3.045024340961253984e+01,1.144700363855336605e+02,0.000000000000000000e+00
3.045024471301684343e+01,1.144700368047243160e+02,0.000000000000000000e+00
3.045024601584905355e+01,1.144700372262775971e+02,0.000000000000000000e+00
3.045024731810596208e+01,1.144700376501924382e+02,0.000000000000000000e+00
3.045024861978435027e+01,1.144700380764678158e+02,0.000000000000000000e+00
3.045024992088100291e+01,1.144700385051026501e+02,0.000000000000000000e+00
3.045025122139271190e+01,1.144700389360959321e+02,0.000000000000000000e+00
3.045025252131627624e+01,1.144700393694465390e+02,0.000000000000000000e+00
3.045025382064848429e+01,1.144700398051534478e+02,0.000000000000000000e+00
3.045025511938612084e+01,1.144700402432155784e+02,0.000000000000000000e+00
3.045025641752598844e+01,1.144700406836318365e+02,0.000000000000000000e+00
3.045025771506489320e+01,1.144700411264011279e+02,0.000000000000000000e+00
3.045025901199961638e+01,1.144700415715223727e+02,0.000000000000000000e+00
3.045026030832696406e+01,1.144700420189944623e+02,0.000000000000000000e+00
3.045026160404374593e+01,1.144700424688163025e+02,0.000000000000000000e+00
3.045026289914676099e+01,1.144700429209867991e+02,0.000000000000000000e+00
3.045026419363280112e+01,1.144700433755048010e+02,0.000000000000000000e+00
3.045026548749869022e+01,1.144700438323692282e+02,0.000000000000000000e+00
3.045026678074122373e+01,1.144700442915789012e+02,0.000000000000000000e+00
3.045026807335722197e+01,1.144700447531327256e+02,0.000000000000000000e+00
3.045026936534348039e+01,1.144700452170295506e+02,0.000000000000000000e+00
3.045027065669682997e+01,1.144700456832682534e+02,0.000000000000000000e+00
3.045027194741406618e+01,1.144700461518476544e+02,0.000000000000000000e+00
3.045027323749201287e+01,1.144700466227666027e+02,0.000000000000000000e+00
3.045027452692748327e+01,1.144700470960239329e+02,0.000000000000000000e+00
3.045027581571730479e+01,1.144700475716184940e+02,0.000000000000000000e+00
3.045027710385828712e+01,1.144700480495491064e+02,0.000000000000000000e+00
3.045027839134726122e+01,1.144700485298145907e+02,0.000000000000000000e+00
3.045027967818104031e+01,1.144700490124137531e+02,0.000000000000000000e+00
3.045028096435645892e+01,1.144700494973454141e+02,0.000000000000000000e+00
3.045028224987033383e+01,1.144700499846083659e+02,0.000000000000000000e+00
3.045028353471949600e+01,1.144700504742014289e+02,0.000000000000000000e+00
3.045028481890078353e+01,1.144700509661233667e+02,0.000000000000000000e+00
3.045028610241101674e+01,1.144700514603729715e+02,0.000000000000000000e+00
3.045028738524703726e+01,1.144700519569490496e+02,0.000000000000000000e+00
3.045028866740567608e+01,1.144700524558503503e+02,0.000000000000000000e+00
3.045028994888377127e+01,1.144700529570756373e+02,0.000000000000000000e+00
3.045029122967815383e+01,1.144700534606237028e+02,0.000000000000000000e+00
3.045029250978566893e+01,1.144700539664932819e+02,0.000000000000000000e+00
3.045029378920316532e+01,1.144700544746831241e+02,0.000000000000000000e+00
3.045029506792747398e+01,1.144700549851919931e+02,0.000000000000000000e+00
3.045029634595544721e+01,1.144700554980186098e+02,0.000000000000000000e+00
3.045029762328392309e+01,1.144700560131617237e+02,0.000000000000000000e+00
3.045029889990976457e+01,1.144700565306200701e+02,0.000000000000000000e+00
3.045030017582980619e+01,1.144700570503923416e+02,0.000000000000000000e+00
3.045030145104091091e+01,1.144700575724772875e+02,0.000000000000000000e+00
3.045030272553992745e+01,1.144700580968736006e+02,0.000000000000000000e+00
3.045030399932371523e+01,1.144700586235800017e+02,0.000000000000000000e+00
3.045030527238911944e+01,1.144700591525951836e+02,0.000000000000000000e+00
3.045030654473301013e+01,1.144700596839178388e+02,0.000000000000000000e+00
3.045030781635224670e+01,1.144700602175466599e+02,0.000000000000000000e+00
3.045030908724369212e+01,1.144700607534803254e+02,0.000000000000000000e+00
3.045031035740420222e+01,1.144700612917175135e+02,0.000000000000000000e+00
3.045031162683065418e+01,1.144700618322569028e+02,0.000000000000000000e+00
3.045031289551991094e+01,1.144700623750971431e+02,0.000000000000000000e+00
3.045031416346883901e+01,1.144700629202369271e+02,0.000000000000000000e+00
3.045031543067431556e+01,1.144700634676748905e+02,0.000000000000000000e+00
3.045031669713321065e+01,1.144700640174096691e+02,0.000000000000000000e+00
3.045031796284240144e+01,1.144700645694399412e+02,0.000000000000000000e+00
3.045031922779875799e+01,1.144700651237643143e+02,0.000000000000000000e+00
3.045032049199917168e+01,1.144700656803814098e+02,0.000000000000000000e+00
3.045032175544051256e+01,1.144700662392898920e+02,0.000000000000000000e+00
3.045032301811966491e+01,1.144700668004883681e+02,0.000000000000000000e+00
3.045032428003352010e+01,1.144700673639754456e+02,0.000000000000000000e+00
3.045032554117895174e+01,1.144700679297497317e+02,0.000000000000000000e+00
3.045032680155286187e+01,1.144700684978098479e+02,0.000000000000000000e+00
3.045032806115213120e+01,1.144700690681543875e+02,0.000000000000000000e+00
3.045032931997365822e+01,1.144700696407819152e+02,0.000000000000000000e+00
3.045033057801432719e+01,1.144700702156910666e+02,0.000000000000000000e+00
3.045033183527105081e+01,1.144700707928803780e+02,0.000000000000000000e+00
3.045033309174070979e+01,1.144700713723484569e+02,0.000000000000000000e+00
3.045033434742021683e+01,1.144700719540938536e+02,0.000000000000000000e+00
3.045033560230646330e+01,1.144700725381151472e+02,0.000000000000000000e+00
3.045033685639635834e+01,1.144700731244108880e+02,0.000000000000000000e+00
3.045033810968680399e+01,1.144700737129796266e+02,0.000000000000000000e+00
3.045033936217471648e+01,1.144700743038199136e+02,0.000000000000000000e+00
3.045034061385699431e+01,1.144700748969302992e+02,0.000000000000000000e+00
3.045034186473055726e+01,1.144700754923093200e+02,0.000000000000000000e+00
3.045034311479231448e+01,1.144700760899554979e+02,0.000000000000000000e+00
3.045034436403918221e+01,1.144700766898673550e+02,0.000000000000000000e+00
3.045034561246807669e+01,1.144700772920434133e+02,0.000000000000000000e+00
3.045034686007592484e+01,1.144700778964822092e+02,0.000000000000000000e+00
3.045034810685964288e+01,1.144700785031822221e+02,0.000000000000000000e+00
